720.00000	0.00281
719.75000	0.00303
719.50000	0.00180
719.25000	-0.00067
719.00000	0.00312
718.75000	0.00352
718.50000	0.00190
718.25000	0.00308
718.00000	0.00078
717.75000	0.00293
717.50000	0.00363
717.25000	0.00320
717.00000	0.00240
716.75000	0.00247
716.50000	0.00174
716.25000	0.00221
716.00000	0.00200
715.75000	0.00294
715.50000	0.00309
715.25000	0.00243
715.00000	0.00345
714.75000	0.00179
714.50000	0.00282
714.25000	0.00150
714.00000	0.00242
713.75000	0.00223
713.50000	0.00528
713.25000	0.00068
713.00000	0.00332
712.75000	0.00286
712.50000	0.00233
712.25000	0.00349
712.00000	5.5914E-006
711.75000	0.00285
711.50000	0.00301
711.25000	0.00232
711.00000	0.00365
710.75000	0.00160
710.50000	0.00275
710.25000	0.00166
710.00000	0.00320
709.75000	0.00057
709.50000	0.00311
709.25000	0.00130
709.00000	0.00191
708.75000	0.00506
708.50000	0.00391
708.25000	0.00167
708.00000	0.00067
707.75000	0.00355
707.50000	0.00118
707.25000	0.00288
707.00000	0.00264
706.75000	0.00244
706.50000	0.00303
706.25000	0.00077
706.00000	0.00187
705.75000	0.00166
705.50000	0.00211
705.25000	0.00190
705.00000	0.00116
704.75000	0.00252
704.50000	0.00223
704.25000	0.00286
704.00000	0.00339
703.75000	0.00154
703.50000	0.00246
703.25000	0.00449
703.00000	0.00160
702.75000	0.00260
702.50000	0.00622
702.25000	-0.00047
702.00000	0.00242
701.75000	0.00099
701.50000	0.00271
701.25000	0.00249
701.00000	0.00359
700.75000	0.00238
700.50000	0.00321
700.25000	0.00313
700.00000	0.00170
699.75000	0.00182
699.50000	0.00271
699.25000	0.00043
699.00000	0.00227
698.75000	0.00388
698.50000	0.00219
698.25000	0.00144
698.00000	0.00336
697.75000	0.00280
697.50000	0.00285
697.25000	0.00151
697.00000	0.00059
696.75000	0.00207
696.50000	0.00462
696.25000	0.00091
696.00000	0.00196
695.75000	0.00295
695.50000	0.00206
695.25000	0.00381
695.00000	0.00319
694.75000	0.00259
694.50000	0.00158
694.25000	0.00351
694.00000	0.00090
693.75000	-0.00053
693.50000	0.00106
693.25000	0.00619
693.00000	0.00322
692.75000	0.00386
692.50000	0.00224
692.25000	0.00362
692.00000	0.00252
691.75000	0.00348
691.50000	0.00164
691.25000	0.00195
691.00000	0.00271
690.75000	0.00319
690.50000	0.00176
690.25000	0.00440
690.00000	0.00288
689.75000	0.00152
689.50000	0.00217
689.25000	0.00386
689.00000	0.00418
688.75000	0.00420
688.50000	0.00254
688.25000	0.00223
688.00000	0.00204
687.75000	0.00279
687.50000	0.00215
687.25000	0.00042
687.00000	0.00345
686.75000	0.00380
686.50000	0.00192
686.25000	0.00325
686.00000	0.00149
685.75000	0.00365
685.50000	0.00077
685.25000	0.00198
685.00000	0.00379
684.75000	0.00451
684.50000	0.00556
684.25000	0.00124
684.00000	0.00396
683.75000	0.00085
683.50000	0.00227
683.25000	0.00356
683.00000	0.00268
682.75000	0.00306
682.50000	0.00140
682.25000	0.00379
682.00000	0.00337
681.75000	0.00273
681.50000	0.00345
681.25000	0.00233
681.00000	0.00487
680.75000	0.00198
680.50000	0.00286
680.25000	0.00321
680.00000	0.00454
679.75000	0.00131
679.50000	0.00067
679.25000	0.00109
679.00000	0.00046
678.75000	0.00334
678.50000	0.00159
678.25000	0.00148
678.00000	0.00320
677.75000	0.00427
677.50000	0.00127
677.25000	0.00207
677.00000	0.00320
676.75000	0.00206
676.50000	0.00413
676.25000	0.00074
676.00000	0.00303
675.75000	0.00320
675.50000	-0.00033
675.25000	0.00057
675.00000	0.00076
674.75000	0.00317
674.50000	0.00460
674.25000	0.00206
674.00000	0.00512
673.75000	0.00150
673.50000	0.00275
673.25000	0.00137
673.00000	0.00409
672.75000	0.00321
672.50000	0.00150
672.25000	0.00402
672.00000	0.00196
671.75000	0.00358
671.50000	-0.00189
671.25000	0.00248
671.00000	0.00047
670.75000	0.00056
670.50000	0.00064
670.25000	0.00123
670.00000	0.00327
669.75000	0.00235
669.50000	0.00413
669.25000	-0.00021
669.00000	0.00364
668.75000	0.00364
668.50000	0.00199
668.25000	0.00340
668.00000	0.00213
667.75000	0.00053
667.50000	0.00094
667.25000	0.00196
667.00000	0.00222
666.75000	0.00195
666.50000	0.00474
666.25000	0.00160
666.00000	0.00165
665.75000	0.00141
665.50000	0.00439
665.25000	-8.1799E-006
665.00000	0.00305
664.75000	0.00019
664.50000	0.00037
664.25000	0.00027
664.00000	0.00004
663.75000	0.00288
663.50000	0.00057
663.25000	0.00280
663.00000	0.00167
662.75000	-0.00027
662.50000	0.00488
662.25000	0.00489
662.00000	0.00231
661.75000	0.00210
661.50000	0.00028
661.25000	0.00284
661.00000	0.00043
660.75000	0.00077
660.50000	0.00146
660.25000	0.00092
660.00000	0.00179
659.75000	0.00145
659.50000	0.00094
659.25000	0.00300
659.00000	0.00418
658.75000	0.00250
658.50000	0.00221
658.25000	0.00220
658.00000	0.00263
657.75000	0.00466
657.50000	-0.00012
657.25000	0.00151
657.00000	0.00131
656.75000	0.00196
656.50000	0.00323
656.25000	0.00028
656.00000	0.00245
655.75000	0.00272
655.50000	0.00409
655.25000	0.00011
655.00000	0.00329
654.75000	0.00038
654.50000	0.00228
654.25000	0.00357
654.00000	0.00118
653.75000	0.00155
653.50000	-0.00051
653.25000	0.00272
653.00000	0.00322
652.75000	0.00338
652.50000	0.00561
652.25000	0.00381
652.00000	0.00387
651.75000	0.00133
651.50000	0.00331
651.25000	0.00156
651.00000	0.00194
650.75000	-0.00096
650.50000	0.00057
650.25000	0.00326
650.00000	0.00112
649.75000	0.00464
649.50000	0.00065
649.25000	0.00341
649.00000	0.00327
648.75000	0.00258
648.50000	0.00212
648.25000	0.00375
648.00000	0.00066
647.75000	0.00085
647.50000	0.00214
647.25000	-0.00010
647.00000	0.00358
646.75000	0.00322
646.50000	0.00348
646.25000	0.00283
646.00000	0.00288
645.75000	0.00043
645.50000	0.00311
645.25000	0.00305
645.00000	0.00012
644.75000	0.00375
644.50000	0.00096
644.25000	0.00160
644.00000	0.00253
643.75000	0.00280
643.50000	0.00048
643.25000	0.00204
643.00000	0.00218
642.75000	0.00453
642.50000	0.00242
642.25000	0.00309
642.00000	0.00391
641.75000	0.00223
641.50000	0.00301
641.25000	-0.00036
641.00000	0.00005
640.75000	0.00139
640.50000	0.00312
640.25000	0.00474
640.00000	0.00367
639.75000	0.00389
639.50000	0.00389
639.25000	0.00414
639.00000	0.00392
638.75000	0.00249
638.50000	0.00152
638.25000	0.00326
638.00000	0.00321
637.75000	0.00358
637.50000	0.00472
637.25000	0.00410
637.00000	0.00456
636.75000	0.00326
636.50000	0.00098
636.25000	0.00313
636.00000	0.00467
635.75000	0.00378
635.50000	0.00150
635.25000	0.00101
635.00000	0.00330
634.75000	0.00305
634.50000	0.00275
634.25000	0.00293
634.00000	0.00462
633.75000	0.00407
633.50000	0.00354
633.25000	0.00210
633.00000	0.00313
632.75000	0.00252
632.50000	0.00365
632.25000	0.00234
632.00000	0.00020
631.75000	0.00610
631.50000	0.00405
631.25000	0.00551
631.00000	0.00498
630.75000	0.00462
630.50000	0.00361
630.25000	0.00301
630.00000	0.00458
629.75000	0.00206
629.50000	0.00356
629.25000	0.00333
629.00000	0.00366
628.75000	0.00352
628.50000	0.00314
628.25000	0.00475
628.00000	0.00686
627.75000	0.00445
627.50000	0.00385
627.25000	0.00292
627.00000	0.00493
626.75000	0.00521
626.50000	0.00389
626.25000	0.00421
626.00000	0.00341
625.75000	0.00564
625.50000	0.00337
625.25000	0.00476
625.00000	0.00278
624.75000	0.00573
624.50000	0.00339
624.25000	0.00389
624.00000	0.00179
623.75000	0.00404
623.50000	0.00362
623.25000	0.00419
623.00000	0.00498
622.75000	0.00318
622.50000	0.00537
622.25000	0.00330
622.00000	0.00499
621.75000	0.00432
621.50000	0.00346
621.25000	0.00389
621.00000	0.00111
620.75000	0.00354
620.50000	0.00214
620.25000	0.00720
620.00000	0.00454
619.75000	0.00655
619.50000	0.00609
619.25000	0.00570
619.00000	0.00489
618.75000	0.00239
618.50000	0.00293
618.25000	0.00143
618.00000	0.00291
617.75000	0.00311
617.50000	0.00215
617.25000	0.00495
617.00000	0.00419
616.75000	0.00471
616.50000	0.00174
616.25000	0.00342
616.00000	0.00387
615.75000	0.00371
615.50000	0.00335
615.25000	0.00365
615.00000	0.00438
614.75000	0.00379
614.50000	0.00537
614.25000	0.00463
614.00000	0.00300
613.75000	0.00449
613.50000	0.00243
613.25000	0.00391
613.00000	0.00315
612.75000	0.00237
612.50000	0.00404
612.25000	0.00279
612.00000	0.00302
611.75000	0.00342
611.50000	0.00661
611.25000	0.00613
611.00000	0.00307
610.75000	0.00184
610.50000	0.00198
610.25000	0.00389
610.00000	0.00229
609.75000	0.00352
609.50000	0.00415
609.25000	0.00503
609.00000	0.00563
608.75000	0.00426
608.50000	0.00326
608.25000	0.00437
608.00000	0.00327
607.75000	0.00304
607.50000	0.00413
607.25000	0.00323
607.00000	0.00534
606.75000	0.00520
606.50000	0.00321
606.25000	0.00513
606.00000	0.00519
605.75000	0.00514
605.50000	0.00344
605.25000	0.00273
605.00000	0.00404
604.75000	0.00171
604.50000	0.00458
604.25000	0.00152
604.00000	0.00346
603.75000	0.00483
603.50000	0.00591
603.25000	0.00547
603.00000	0.00229
602.75000	0.00560
602.50000	0.00241
602.25000	0.00344
602.00000	0.00314
601.75000	0.00336
601.50000	0.00304
601.25000	0.00470
601.00000	0.00584
600.75000	0.00203
600.50000	0.00467
600.25000	0.00525
600.00000	0.00412
599.75000	0.00521
599.50000	0.00181
599.25000	0.00468
599.00000	0.00248
598.75000	0.00343
598.50000	0.00418
598.25000	0.00456
598.00000	0.00541
597.75000	0.00262
597.50000	0.00753
597.25000	0.00401
597.00000	0.00451
596.75000	0.00390
596.50000	0.00429
596.25000	0.00147
596.00000	0.00327
595.75000	0.00509
595.50000	0.00386
595.25000	0.00612
595.00000	0.00320
594.75000	0.00452
594.50000	0.00384
594.25000	-0.00071
594.00000	0.00377
593.75000	0.00270
593.50000	0.00276
593.25000	0.00338
593.00000	0.00360
592.75000	0.00723
592.50000	0.00430
592.25000	0.00381
592.00000	0.00273
591.75000	0.00595
591.50000	0.00213
591.25000	0.00334
591.00000	0.00466
590.75000	0.00163
590.50000	0.00363
590.25000	0.00277
590.00000	0.00428
589.75000	0.00411
589.50000	0.00312
589.25000	0.00342
589.00000	0.00341
588.75000	0.00422
588.50000	0.00286
588.25000	0.00366
588.00000	0.00273
587.75000	0.00372
587.50000	0.00462
587.25000	0.00533
587.00000	0.00512
586.75000	0.00382
586.50000	0.00418
586.25000	0.00311
586.00000	0.00445
585.75000	0.00219
585.50000	0.00310
585.25000	0.00328
585.00000	0.00332
584.75000	0.00509
584.50000	0.00288
584.25000	0.00428
584.00000	0.00253
583.75000	0.00436
583.50000	0.00501
583.25000	0.00258
583.00000	0.00291
582.75000	0.00269
582.50000	0.00398
582.25000	0.00188
582.00000	0.00260
581.75000	0.00422
581.50000	0.00351
581.25000	0.00659
581.00000	0.00333
580.75000	0.00595
580.50000	0.00247
580.25000	0.00345
580.00000	0.00314
579.75000	0.00053
579.50000	0.00359
579.25000	0.00251
579.00000	0.00384
578.75000	0.00445
578.50000	0.00264
578.25000	0.00288
578.00000	0.00266
577.75000	0.00507
577.50000	0.00376
577.25000	0.00525
577.00000	0.00237
576.75000	0.00436
576.50000	0.00337
576.25000	0.00408
576.00000	0.00549
575.75000	0.00096
575.50000	0.00422
575.25000	0.00233
575.00000	0.00489
574.75000	0.00373
574.50000	0.00392
574.25000	0.00058
574.00000	0.00212
573.75000	0.00527
573.50000	0.00304
573.25000	0.00401
573.00000	0.00405
572.75000	0.00307
572.50000	0.00555
572.25000	0.00171
572.00000	0.00550
571.75000	0.00210
571.50000	0.00480
571.25000	0.00384
571.00000	0.00206
570.75000	0.00461
570.50000	0.00312
570.25000	0.00451
570.00000	0.00134
569.75000	0.00494
569.50000	0.00458
569.25000	0.00705
569.00000	0.00422
568.75000	0.00411
568.50000	0.00215
568.25000	0.00440
568.00000	0.00585
567.75000	0.00368
567.50000	0.00668
567.25000	0.00580
567.00000	0.00601
566.75000	0.00521
566.50000	0.00605
566.25000	0.00617
566.00000	0.00778
565.75000	0.00692
565.50000	0.00427
565.25000	0.00649
565.00000	0.00296
564.75000	0.00472
564.50000	0.00658
564.25000	0.00539
564.00000	0.00687
563.75000	0.00621
563.50000	0.00753
563.25000	0.00478
563.00000	0.00490
562.75000	0.00278
562.50000	0.00670
562.25000	0.00510
562.00000	0.00518
561.75000	0.00730
561.50000	0.00754
561.25000	0.00681
561.00000	0.00515
560.75000	0.00737
560.50000	0.00511
560.25000	0.00568
560.00000	0.00706
559.75000	0.00588
559.50000	0.00410
559.25000	0.00732
559.00000	0.00334
558.75000	0.00403
558.50000	0.00792
558.25000	0.01066
558.00000	0.00726
557.75000	0.00600
557.50000	0.00574
557.25000	0.00663
557.00000	0.00778
556.75000	0.00337
556.50000	0.00509
556.25000	0.00391
556.00000	0.00717
555.75000	0.00672
555.50000	0.00789
555.25000	0.00623
555.00000	0.00577
554.75000	0.00748
554.50000	0.00648
554.25000	0.00580
554.00000	0.00552
553.75000	0.00920
553.50000	0.00801
553.25000	0.00608
553.00000	0.00705
552.75000	0.00684
552.50000	0.01143
552.25000	0.00801
552.00000	0.00659
551.75000	0.00950
551.50000	0.00559
551.25000	0.00592
551.00000	0.00314
550.75000	0.00766
550.50000	0.00761
550.25000	0.01076
550.00000	0.00900
549.75000	0.00843
549.50000	0.00696
549.25000	0.00771
549.00000	0.00860
548.75000	0.00693
548.50000	0.00844
548.25000	0.00640
548.00000	0.00798
547.75000	0.00810
547.50000	0.00625
547.25000	0.00934
547.00000	0.01001
546.75000	0.00871
546.50000	0.00590
546.25000	0.00735
546.00000	0.00956
545.75000	0.00737
545.50000	0.00735
545.25000	0.00817
545.00000	0.00840
544.75000	0.00760
544.50000	0.01037
544.25000	0.01090
544.00000	0.01068
543.75000	0.01238
543.50000	0.01121
543.25000	0.00984
543.00000	0.00858
542.75000	0.01006
542.50000	0.00962
542.25000	0.01176
542.00000	0.01306
541.75000	0.01217
541.50000	0.01658
541.25000	0.01474
541.00000	0.01280
540.75000	0.01224
540.50000	0.01144
540.25000	0.01265
540.00000	0.01378
539.75000	0.01352
539.50000	0.01398
539.25000	0.01496
539.00000	0.01655
538.75000	0.01494
538.50000	0.01769
538.25000	0.01836
538.00000	0.01926
537.75000	0.01700
537.50000	0.01800
537.25000	0.01729
537.00000	0.01770
536.75000	0.02093
536.50000	0.01900
536.25000	0.02175
536.00000	0.02260
535.75000	0.02238
535.50000	0.02384
535.25000	0.02636
535.00000	0.02699
534.75000	0.02463
534.50000	0.02671
534.25000	0.02640
534.00000	0.02828
533.75000	0.03147
533.50000	0.03048
533.25000	0.03224
533.00000	0.03177
532.75000	0.03735
532.50000	0.03596
532.25000	0.03650
532.00000	0.03562
531.75000	0.04141
531.50000	0.04403
531.25000	0.04595
531.00000	0.04521
530.75000	0.04827
530.50000	0.05014
530.25000	0.05275
530.00000	0.05450
529.75000	0.05893
529.50000	0.06138
529.25000	0.06540
529.00000	0.06541
528.75000	0.06982
528.50000	0.07149
528.25000	0.07417
528.00000	0.07758
527.75000	0.08083
527.50000	0.08405
527.25000	0.08858
527.00000	0.09405
526.75000	0.09790
526.50000	0.10094
526.25000	0.10562
526.00000	0.10972
525.75000	0.11477
525.50000	0.12056
525.25000	0.12650
525.00000	0.13089
524.75000	0.13688
524.50000	0.14074
524.25000	0.14594
524.00000	0.15536
523.75000	0.16129
523.50000	0.16817
523.25000	0.17664
523.00000	0.18020
522.75000	0.19217
522.50000	0.19654
522.25000	0.20689
522.00000	0.21288
521.75000	0.22140
521.50000	0.23300
521.25000	0.24010
521.00000	0.25099
520.75000	0.26091
520.50000	0.27058
520.25000	0.28293
520.00000	0.29408
519.75000	0.30553
519.50000	0.31889
519.25000	0.33247
519.00000	0.34245
518.75000	0.35819
518.50000	0.37010
518.25000	0.38070
518.00000	0.39946
517.75000	0.41416
517.50000	0.43076
517.25000	0.44521
517.00000	0.46490
516.75000	0.47909
516.50000	0.50058
516.25000	0.51948
516.00000	0.54165
515.75000	0.56672
515.50000	0.59071
515.25000	0.61817
515.00000	0.64095
514.75000	0.66086
514.50000	0.68117
514.25000	0.70486
514.00000	0.72820
513.75000	0.75185
513.50000	0.77568
513.25000	0.79863
513.00000	0.82220
512.75000	0.84579
512.50000	0.87126
512.25000	0.89877
512.00000	0.92188
511.75000	0.94954
511.50000	0.98013
511.25000	1.00590
511.00000	1.03174
510.75000	1.05867
510.50000	1.09248
510.25000	1.11780
510.00000	1.14046
509.75000	1.16827
509.50000	1.19506
509.25000	1.22170
509.00000	1.25103
508.75000	1.27653
508.50000	1.30554
508.25000	1.32877
508.00000	1.35985
507.75000	1.38239
507.50000	1.41279
507.25000	1.43604
507.00000	1.46106
506.75000	1.47922
506.50000	1.50646
506.25000	1.52678
506.00000	1.55349
505.75000	1.57190
505.50000	1.59325
505.25000	1.61348
505.00000	1.63777
504.75000	1.65201
504.50000	1.66794
504.25000	1.68407
504.00000	1.69931
503.75000	1.71887
503.50000	1.73150
503.25000	1.74763
503.00000	1.75694
502.75000	1.76652
502.50000	1.78441
502.25000	1.79566
502.00000	1.79591
501.75000	1.80479
501.50000	1.80616
501.25000	1.81904
501.00000	1.82403
500.75000	1.83015
500.50000	1.82644
500.25000	1.83153
500.00000	1.82535
499.75000	1.82550
499.50000	1.81971
499.25000	1.81287
499.00000	1.82220
498.75000	1.80983
498.50000	1.80788
498.25000	1.79966
498.00000	1.78717
497.75000	1.77845
497.50000	1.77531
497.25000	1.76592
497.00000	1.75603
496.75000	1.74253
496.50000	1.72757
496.25000	1.71817
496.00000	1.70278
495.75000	1.69197
495.50000	1.67954
495.25000	1.66060
495.00000	1.65486
494.75000	1.64840
494.50000	1.63237
494.25000	1.61643
494.00000	1.60306
493.75000	1.58452
493.50000	1.56793
493.25000	1.55530
493.00000	1.53727
492.75000	1.51985
492.50000	1.49918
492.25000	1.48389
492.00000	1.46647
491.75000	1.44765
491.50000	1.43131
491.25000	1.41147
491.00000	1.39458
490.75000	1.38029
490.50000	1.36217
490.25000	1.33925
490.00000	1.31889
489.75000	1.30504
489.50000	1.28597
489.25000	1.26946
489.00000	1.25272
488.75000	1.23811
488.50000	1.21825
488.25000	1.19973
488.00000	1.18401
487.75000	1.16396
487.50000	1.14989
487.25000	1.13396
487.00000	1.11683
486.75000	1.09981
486.50000	1.08511
486.25000	1.07015
486.00000	1.05402
485.75000	1.04519
485.50000	1.02823
485.25000	1.01220
485.00000	0.99926
484.75000	0.98246
484.50000	0.97092
484.25000	0.95938
484.00000	0.94377
483.75000	0.93087
483.50000	0.91859
483.25000	0.90743
483.00000	0.89603
482.75000	0.88282
482.50000	0.87562
482.25000	0.86629
482.00000	0.85664
481.75000	0.84221
481.50000	0.83181
481.25000	0.82546
481.00000	0.81657
480.75000	0.80527
480.50000	0.79524
480.25000	0.78972
480.00000	0.78345
479.75000	0.77164
479.50000	0.76299
479.25000	0.75922
479.00000	0.75372
478.75000	0.74763
478.50000	0.73943
478.25000	0.73325
478.00000	0.72585
477.75000	0.71680
477.50000	0.71477
477.25000	0.70762
477.00000	0.70473
476.75000	0.69960
476.50000	0.69186
476.25000	0.68865
476.00000	0.68146
475.75000	0.67855
475.50000	0.67163
475.25000	0.66903
475.00000	0.66424
474.75000	0.66224
474.50000	0.65658
474.25000	0.65338
474.00000	0.65257
473.75000	0.64685
473.50000	0.64493
473.25000	0.63980
473.00000	0.64100
472.75000	0.63603
472.50000	0.63491
472.25000	0.63009
472.00000	0.62768
471.75000	0.62068
471.50000	0.62080
471.25000	0.61639
471.00000	0.61478
470.75000	0.61188
470.50000	0.61037
470.25000	0.60465
470.00000	0.60535
469.75000	0.60418
469.50000	0.59818
469.25000	0.58991
469.00000	0.59048
468.75000	0.58780
468.50000	0.58353
468.25000	0.58047
468.00000	0.57459
467.75000	0.57214
467.50000	0.56694
467.25000	0.56158
467.00000	0.55980
466.75000	0.55293
466.50000	0.55154
466.25000	0.54491
466.00000	0.54337
465.75000	0.53486
465.50000	0.53278
465.25000	0.52843
465.00000	0.52351
464.75000	0.51759
464.50000	0.51155
464.25000	0.50643
464.00000	0.50232
463.75000	0.49894
463.50000	0.49115
463.25000	0.48659
463.00000	0.48129
462.75000	0.47616
462.50000	0.46915
462.25000	0.46204
462.00000	0.45753
461.75000	0.45177
461.50000	0.44248
461.25000	0.43729
461.00000	0.43252
460.75000	0.42382
460.50000	0.41828
460.25000	0.41233
460.00000	0.40916
459.75000	0.40008
459.50000	0.39379
459.25000	0.38713
459.00000	0.38277
458.75000	0.37792
458.50000	0.37087
458.25000	0.36542
458.00000	0.35721
457.75000	0.35360
457.50000	0.34628
457.25000	0.33950
457.00000	0.33227
456.75000	0.33040
456.50000	0.32285
456.25000	0.31685
456.00000	0.31362
455.75000	0.30691
455.50000	0.30179
455.25000	0.29431
455.00000	0.29294
454.75000	0.29267
454.50000	0.28498
454.25000	0.28183
454.00000	0.27906
453.75000	0.27255
453.50000	0.26834
453.25000	0.26327
453.00000	0.25815
452.75000	0.25513
452.50000	0.24793
452.25000	0.24700
452.00000	0.24366
451.75000	0.23709
451.50000	0.23514
451.25000	0.23211
451.00000	0.22798
450.75000	0.22384
450.50000	0.21931
450.25000	0.21812
450.00000	0.21336
449.75000	0.21152
449.50000	0.20480
449.25000	0.20310
449.00000	0.20080
448.75000	0.19899
448.50000	0.19762
448.25000	0.19262
448.00000	0.18931
447.75000	0.18712
447.50000	0.18648
447.25000	0.18157
447.00000	0.17553
446.75000	0.17567
446.50000	0.17351
446.25000	0.17147
446.00000	0.17104
445.75000	0.16721
445.50000	0.16484
445.25000	0.16426
445.00000	0.16069
444.75000	0.15926
444.50000	0.15813
444.25000	0.15658
444.00000	0.15562
443.75000	0.15121
443.50000	0.15005
443.25000	0.14633
443.00000	0.14492
442.75000	0.14448
442.50000	0.14218
442.25000	0.14323
442.00000	0.13948
441.75000	0.13872
441.50000	0.13916
441.25000	0.13548
441.00000	0.13384
440.75000	0.13574
440.50000	0.13308
440.25000	0.13031
440.00000	0.12885
439.75000	0.12865
439.50000	0.12579
439.25000	0.12424
439.00000	0.12229
438.75000	0.12129
438.50000	0.11995
438.25000	0.11977
438.00000	0.11778
437.75000	0.11543
437.50000	0.11600
437.25000	0.11392
437.00000	0.11201
436.75000	0.11065
436.50000	0.11018
436.25000	0.10851
436.00000	0.10690
435.75000	0.10481
435.50000	0.10195
435.25000	0.10168
435.00000	0.09726
434.75000	0.09865
434.50000	0.09702
434.25000	0.09588
434.00000	0.09491
433.75000	0.09375
433.50000	0.09321
433.25000	0.09078
433.00000	0.08990
432.75000	0.08877
432.50000	0.08811
432.25000	0.08656
432.00000	0.08224
431.75000	0.08473
431.50000	0.08029
431.25000	0.07906
431.00000	0.07834
430.75000	0.07876
430.50000	0.07801
430.25000	0.07561
430.00000	0.07436
429.75000	0.07401
429.50000	0.07258
429.25000	0.07129
429.00000	0.07079
428.75000	0.07086
428.50000	0.06782
428.25000	0.06428
428.00000	0.06612
427.75000	0.06365
427.50000	0.06401
427.25000	0.06236
427.00000	0.06141
426.75000	0.05934
426.50000	0.05963
426.25000	0.05788
426.00000	0.05681
425.75000	0.05523
425.50000	0.05460
425.25000	0.05291
425.00000	0.05446
424.75000	0.05397
424.50000	0.05156
424.25000	0.05382
424.00000	0.05067
423.75000	0.05043
423.50000	0.04970
423.25000	0.04828
423.00000	0.04968
422.75000	0.04697
422.50000	0.04638
422.25000	0.04377
422.00000	0.04502
421.75000	0.04532
421.50000	0.04301
421.25000	0.04251
421.00000	0.04241
420.75000	0.04218
420.50000	0.04306
420.25000	0.04133
420.00000	0.04000
419.75000	0.04092
419.50000	0.03862
419.25000	0.03964
419.00000	0.03753
418.75000	0.03800
418.50000	0.03721
418.25000	0.03664
418.00000	0.03691
417.75000	0.03688
417.50000	0.03745
417.25000	0.03498
417.00000	0.03530
416.75000	0.03442
416.50000	0.03635
416.25000	0.03440
416.00000	0.03466
415.75000	0.03150
415.50000	0.03311
415.25000	0.03301
415.00000	0.03369
414.75000	0.03349
414.50000	0.03286
414.25000	0.03376
414.00000	0.03180
413.75000	0.03294
413.50000	0.02878
413.25000	0.03121
413.00000	0.03159
412.75000	0.03240
412.50000	0.03148
412.25000	0.03167
412.00000	0.03068
411.75000	0.02854
411.50000	0.03216
411.25000	0.02974
411.00000	0.03027
410.75000	0.03030
410.50000	0.03018
410.25000	0.03014
410.00000	0.03009
409.75000	0.02807
409.50000	0.02837
409.25000	0.02845
409.00000	0.03150
408.75000	0.02914
408.50000	0.02691
408.25000	0.02878
408.00000	0.02967
407.75000	0.02742
407.50000	0.02766
407.25000	0.02775
407.00000	0.02866
406.75000	0.02964
406.50000	0.03092
406.25000	0.02768
406.00000	0.02656
405.75000	0.02548
405.50000	0.02714
405.25000	0.02784
405.00000	0.02649
404.75000	0.02596
404.50000	0.02497
404.25000	0.02525
404.00000	0.02741
403.75000	0.02912
403.50000	0.02589
403.25000	0.02725
403.00000	0.02644
402.75000	0.02736
402.50000	0.03048
402.25000	0.02810
402.00000	0.02985
401.75000	0.02650
401.50000	0.02638
401.25000	0.02945
401.00000	0.02940
400.75000	0.02837
400.50000	0.02805
400.25000	0.02637
400.00000	0.02763
399.75000	0.02927
399.50000	0.02871
399.25000	0.02687
399.00000	0.02600
398.75000	0.02833
398.50000	0.02751
398.25000	0.02715
398.00000	0.02754
397.75000	0.02832
397.50000	0.03006
397.25000	0.02759
397.00000	0.03008
396.75000	0.03045
396.50000	0.02812
396.25000	0.02963
396.00000	0.02850
395.75000	0.02972
395.50000	0.03233
395.25000	0.02941
395.00000	0.03052
394.75000	0.02792
394.50000	0.02761
394.25000	0.02906
394.00000	0.02985
393.75000	0.02977
393.50000	0.02801
393.25000	0.03015
393.00000	0.02754
392.75000	0.03080
392.50000	0.03038
392.25000	0.02688
392.00000	0.02901
391.75000	0.02757
391.50000	0.03381
391.25000	0.03114
391.00000	0.03029
390.75000	0.03086
390.50000	0.03111
390.25000	0.02976
390.00000	0.03214
389.75000	0.03162
389.50000	0.03170
389.25000	0.03257
389.00000	0.03266
388.75000	0.03063
388.50000	0.03147
388.25000	0.03024
388.00000	0.03228
387.75000	0.03226
387.50000	0.03204
387.25000	0.03142
387.00000	0.03137
386.75000	0.03457
386.50000	0.03486
386.25000	0.03370
386.00000	0.03606
385.75000	0.03554
385.50000	0.03216
385.25000	0.03369
385.00000	0.03454
384.75000	0.03565
384.50000	0.03460
384.25000	0.03552
384.00000	0.03615
383.75000	0.03564
383.50000	0.03738
383.25000	0.03723
383.00000	0.03710
382.75000	0.03272
382.50000	0.03473
382.25000	0.03645
382.00000	0.03580
381.75000	0.03776
381.50000	0.03985
381.25000	0.03651
381.00000	0.03857
380.75000	0.03951
380.50000	0.03990
380.25000	0.03937
380.00000	0.03945
379.75000	0.03766
379.50000	0.03876
379.25000	0.04206
379.00000	0.04160
378.75000	0.03578
378.50000	0.04014
378.25000	0.03836
378.00000	0.03560
377.75000	0.03730
377.50000	0.03875
377.25000	0.03816
377.00000	0.04014
376.75000	0.04194
376.50000	0.04265
376.25000	0.03796
376.00000	0.03584
375.75000	0.03683
375.50000	0.03668
375.25000	0.04376
375.00000	0.03764
374.75000	0.03887
374.50000	0.03657
374.25000	0.03856
374.00000	0.04032
373.75000	0.03909
373.50000	0.03948
373.25000	0.03949
373.00000	0.03949
372.75000	0.03998
372.50000	0.03907
372.25000	0.03979
372.00000	0.03749
371.75000	0.04174
371.50000	0.04032
371.25000	0.03981
371.00000	0.03621
370.75000	0.03814
370.50000	0.03923
370.25000	0.03828
370.00000	0.04112
369.75000	0.03669
369.50000	0.04071
369.25000	0.03897
369.00000	0.03887
368.75000	0.03638
368.50000	0.03766
368.25000	0.04020
368.00000	0.04145
367.75000	0.03623
367.50000	0.03627
367.25000	0.03943
367.00000	0.03789
366.75000	0.03930
366.50000	0.03621
366.25000	0.04081
366.00000	0.03786
365.75000	0.03992
365.50000	0.03946
365.25000	0.03695
365.00000	0.04006
364.75000	0.04086
364.50000	0.03970
364.25000	0.03742
364.00000	0.03896
363.75000	0.03740
363.50000	0.03573
363.25000	0.03776
363.00000	0.03953
362.75000	0.03861
362.50000	0.03781
362.25000	0.04301
362.00000	0.03795
361.75000	0.03945
361.50000	0.03979
361.25000	0.03949
361.00000	0.03635
360.75000	0.04031
360.50000	0.04189
360.25000	0.03868
360.00000	0.03881
359.75000	0.04201
359.50000	0.03977
359.25000	0.03976
359.00000	0.03975
358.75000	0.03889
358.50000	0.04243
358.25000	0.03933
358.00000	0.04238
357.75000	0.03992
357.50000	0.04079
357.25000	0.04027
357.00000	0.04039
356.75000	0.03883
356.50000	0.03917
356.25000	0.04296
356.00000	0.04293
355.75000	0.03674
355.50000	0.04062
355.25000	0.04242
355.00000	0.04176
354.75000	0.03889
354.50000	0.04386
354.25000	0.03933
354.00000	0.03965
353.75000	0.04465
353.50000	0.04340
353.25000	0.04315
353.00000	0.04346
352.75000	0.04513
352.50000	0.04166
352.25000	0.03895
352.00000	0.04084
351.75000	0.04264
351.50000	0.04431
351.25000	0.04463
351.00000	0.04379
350.75000	0.03906
350.50000	0.04446
350.25000	0.04734
350.00000	0.04629
349.75000	0.04685
349.50000	0.04566
349.25000	0.04627
349.00000	0.04481
348.75000	0.04652
348.50000	0.04730
348.25000	0.04655
348.00000	0.04817
347.75000	0.04827
347.50000	0.04886
347.25000	0.05120
347.00000	0.05038
346.75000	0.05026
346.50000	0.04826
346.25000	0.04966
346.00000	0.04821
345.75000	0.05376
345.50000	0.05022
345.25000	0.05289
345.00000	0.05401
344.75000	0.05822
344.50000	0.05174
344.25000	0.05304
344.00000	0.05693
343.75000	0.05444
343.50000	0.06081
343.25000	0.05941
343.00000	0.05894
342.75000	0.06083
342.50000	0.06053
342.25000	0.06578
342.00000	0.06333
341.75000	0.06539
341.50000	0.07056
341.25000	0.06610
341.00000	0.06920
340.75000	0.07048
340.50000	0.06930
340.25000	0.07177
340.00000	0.07104
339.75000	0.07665
339.50000	0.07268
339.25000	0.08117
339.00000	0.08170
338.75000	0.07811
338.50000	0.08233
338.25000	0.08760
338.00000	0.08129
337.75000	0.08638
337.50000	0.08525
337.25000	0.09296
337.00000	0.09585
336.75000	0.09194
336.50000	0.09735
336.25000	0.09584
336.00000	0.10373
335.75000	0.09966
335.50000	0.09771
335.25000	0.10072
335.00000	0.10602
334.75000	0.10406
334.50000	0.10594
334.25000	0.10881
334.00000	0.11817
333.75000	0.11161
333.50000	0.11279
333.25000	0.11712
333.00000	0.11626
332.75000	0.12622
332.50000	0.12932
332.25000	0.12523
332.00000	0.13070
331.75000	0.13004
331.50000	0.13844
331.25000	0.13468
331.00000	0.13246
330.75000	0.13735
330.50000	0.14358
330.25000	0.14591
330.00000	0.14401
329.75000	0.14112
329.50000	0.14962
329.25000	0.15437
329.00000	0.14773
328.75000	0.15275
328.50000	0.15619
328.25000	0.16400
328.00000	0.16156
327.75000	0.15969
327.50000	0.15824
327.25000	0.16143
327.00000	0.16983
326.75000	0.17087
326.50000	0.16963
326.25000	0.17192
326.00000	0.17211
325.75000	0.17548
325.50000	0.17148
325.25000	0.17451
325.00000	0.17397
324.75000	0.17435
324.50000	0.17184
324.25000	0.17248
324.00000	0.17906
323.75000	0.17959
323.50000	0.17402
323.25000	0.17673
323.00000	0.18029
322.75000	0.17461
322.50000	0.17766
322.25000	0.17676
322.00000	0.16964
321.75000	0.17667
321.50000	0.16697
321.25000	0.17313
321.00000	0.17076
320.75000	0.17088
320.50000	0.16466
320.25000	0.16205
320.00000	0.15594
319.75000	0.15949
319.50000	0.15633
319.25000	0.14948
319.00000	0.15150
318.75000	0.14993
318.50000	0.15579
318.25000	0.15047
318.00000	0.14358
317.75000	0.14417
317.50000	0.14753
317.25000	0.14667
317.00000	0.14086
316.75000	0.14571
316.50000	0.14295
316.25000	0.14238
316.00000	0.14157
315.75000	0.13449
315.50000	0.13876
315.25000	0.13024
315.00000	0.13507
314.75000	0.13757
314.50000	0.13084
314.25000	0.13400
314.00000	0.12404
313.75000	0.13397
313.50000	0.13156
313.25000	0.13594
313.00000	0.12839
312.75000	0.14140
312.50000	0.13451
312.25000	0.14020
312.00000	0.13754
311.75000	0.13192
311.50000	0.13307
311.25000	0.13131
311.00000	0.12989
310.75000	0.13352
310.50000	0.13667
310.25000	0.13803
310.00000	0.13976
309.75000	0.14470
309.50000	0.13815
309.25000	0.14058
309.00000	0.13979
308.75000	0.14175
308.50000	0.14421
308.25000	0.14538
308.00000	0.14502
307.75000	0.14824
307.50000	0.14841
307.25000	0.14911
307.00000	0.15093
306.75000	0.15448
306.50000	0.15580
306.25000	0.15570
306.00000	0.15793
305.75000	0.16285
305.50000	0.16193
305.25000	0.16342
305.00000	0.16620
304.75000	0.16716
304.50000	0.17061
304.25000	0.17286
304.00000	0.17458
303.75000	0.17908
303.50000	0.17869
303.25000	0.18088
303.00000	0.18105
302.75000	0.18618
302.50000	0.18951
302.25000	0.18739
302.00000	0.19066
301.75000	0.19137
301.50000	0.19638
301.25000	0.19691
301.00000	0.19928
300.75000	0.20084
300.50000	0.20330
300.25000	0.20603
300.00000	0.20752
299.75000	0.20838
299.50000	0.21365
299.25000	0.21461
299.00000	0.21343
298.75000	0.21620
298.50000	0.21904
298.25000	0.22304
298.00000	0.22617
297.75000	0.22649
297.50000	0.22726
297.25000	0.22946
297.00000	0.23032
296.75000	0.23189
296.50000	0.23333
296.25000	0.23599
296.00000	0.23573
295.75000	0.23823
295.50000	0.23692
295.25000	0.24028
295.00000	0.24221
294.75000	0.24096
294.50000	0.24069
294.25000	0.24570
294.00000	0.24716
293.75000	0.24589
293.50000	0.24766
293.25000	0.24912
293.00000	0.25117
292.75000	0.25282
292.50000	0.25507
292.25000	0.25358
292.00000	0.25373
291.75000	0.25435
291.50000	0.25544
291.25000	0.25411
291.00000	0.25453
290.75000	0.25332
290.50000	0.25318
290.25000	0.25202
290.00000	0.25272
289.75000	0.25463
289.50000	0.25249
289.25000	0.25210
289.00000	0.25169
288.75000	0.24845
288.50000	0.25117
288.25000	0.24901
288.00000	0.25078
287.75000	0.24773
287.50000	0.24605
287.25000	0.24374
287.00000	0.24403
286.75000	0.24295
286.50000	0.24155
286.25000	0.24183
286.00000	0.24062
285.75000	0.23924
285.50000	0.23630
285.25000	0.23507
285.00000	0.23587
284.75000	0.23320
284.50000	0.23138
284.25000	0.23253
284.00000	0.23299
283.75000	0.23132
283.50000	0.22872
283.25000	0.22617
283.00000	0.22766
282.75000	0.22604
282.50000	0.22308
282.25000	0.22355
282.00000	0.22159
281.75000	0.22173
281.50000	0.22037
281.25000	0.21970
281.00000	0.22094
280.75000	0.21733
280.50000	0.21564
280.25000	0.21725
280.00000	0.21522
279.75000	0.21492
279.50000	0.21871
279.25000	0.21574
279.00000	0.21470
278.75000	0.21310
278.50000	0.21217
278.25000	0.21413
278.00000	0.21308
277.75000	0.21074
277.50000	0.21295
277.25000	0.21234
277.00000	0.21032
276.75000	0.21048
276.50000	0.21024
276.25000	0.21134
276.00000	0.21115
275.75000	0.21294
275.50000	0.20987
275.25000	0.21246
275.00000	0.21260
274.75000	0.21323
274.50000	0.21617
274.25000	0.21418
274.00000	0.21527
273.75000	0.21669
273.50000	0.21848
273.25000	0.21818
273.00000	0.21785
272.75000	0.22092
272.50000	0.22093
272.25000	0.22148
272.00000	0.22199
271.75000	0.22319
271.50000	0.22480
271.25000	0.22491
271.00000	0.22786
270.75000	0.22715
270.50000	0.22797
270.25000	0.23053
270.00000	0.23385
269.75000	0.23476
269.50000	0.23648
269.25000	0.23899
269.00000	0.23924
268.75000	0.24130
268.50000	0.24136
268.25000	0.24451
268.00000	0.24675
267.75000	0.24593
267.50000	0.24837
267.25000	0.25202
267.00000	0.25073
266.75000	0.25513
266.50000	0.25593
266.25000	0.25831
266.00000	0.25948
265.75000	0.25997
265.50000	0.26291
265.25000	0.26480
265.00000	0.26731
264.75000	0.27012
264.50000	0.26935
264.25000	0.27237
264.00000	0.27469
263.75000	0.27519
263.50000	0.27503
263.25000	0.27759
263.00000	0.27933
262.75000	0.28045
262.50000	0.28156
262.25000	0.28216
262.00000	0.28355
261.75000	0.28447
261.50000	0.28233
261.25000	0.28394
261.00000	0.28341
260.75000	0.28492
260.50000	0.28548
260.25000	0.28563
260.00000	0.28809
259.75000	0.28891
259.50000	0.28920
259.25000	0.28952
259.00000	0.29082
258.75000	0.29115
258.50000	0.29165
258.25000	0.29034
258.00000	0.29288
257.75000	0.29320
257.50000	0.29405
257.25000	0.29637
257.00000	0.29696
256.75000	0.29861
256.50000	0.30021
256.25000	0.30002
256.00000	0.30332
255.75000	0.30700
255.50000	0.30672
255.25000	0.30934
255.00000	0.31060
254.75000	0.31245
254.50000	0.31333
254.25000	0.31842
254.00000	0.32378
253.75000	0.32767
253.50000	0.33308
253.25000	0.33611
253.00000	0.34044
252.75000	0.34694
252.50000	0.35401
252.25000	0.36117
252.00000	0.36779
251.75000	0.37554
251.50000	0.38115
251.25000	0.39363
251.00000	0.40364
250.75000	0.41280
250.50000	0.42298
250.25000	0.43628
250.00000	0.44604
249.75000	0.46045
249.50000	0.47140
249.25000	0.48560
249.00000	0.50191
248.75000	0.51766
248.50000	0.52944
248.25000	0.54563
248.00000	0.56519
247.75000	0.58140
247.50000	0.59217
247.25000	0.60957
247.00000	0.62356
246.75000	0.64126
246.50000	0.65286
246.25000	0.66818
246.00000	0.68253
245.75000	0.69744
245.50000	0.70807
245.25000	0.72024
245.00000	0.72854
244.75000	0.73867
244.50000	0.75169
244.25000	0.75979
244.00000	0.76798
243.75000	0.77620
243.50000	0.78349
243.25000	0.79028
243.00000	0.79334
242.75000	0.79746
242.50000	0.80513
242.25000	0.80795
242.00000	0.81452
241.75000	0.81518
241.50000	0.82001
241.25000	0.82237
241.00000	0.82552
240.75000	0.82460
240.50000	0.82675
240.25000	0.82535
240.00000	0.82446
239.75000	0.82849
239.50000	0.82470
239.25000	0.82589
239.00000	0.81717
238.75000	0.81599
238.50000	0.81063
238.25000	0.80970
238.00000	0.80147
237.75000	0.79861
237.50000	0.79411
237.25000	0.78844
237.00000	0.77995
236.75000	0.77318
236.50000	0.76402
236.25000	0.75610
236.00000	0.74870
235.75000	0.73599
235.50000	0.73066
235.25000	0.71625
235.00000	0.70637
234.75000	0.70013
234.50000	0.69218
234.25000	0.68356
234.00000	0.67640
233.75000	0.67467
233.50000	0.66933
233.25000	0.66262
233.00000	0.65387
232.75000	0.65020
232.50000	0.64587
232.25000	0.64047
232.00000	0.63777
231.75000	0.63243
231.50000	0.62875
231.25000	0.61928
231.00000	0.62173
230.75000	0.61665
230.50000	0.61352
230.25000	0.61066
230.00000	0.60944
229.75000	0.60437
229.50000	0.59985
229.25000	0.59590
229.00000	0.59413
228.75000	0.59227
228.50000	0.59077
228.25000	0.58354
228.00000	0.58013
227.75000	0.57881
227.50000	0.57828
227.25000	0.57712
227.00000	0.57605
226.75000	0.57315
226.50000	0.56944
226.25000	0.57004
226.00000	0.56899
225.75000	0.56749
225.50000	0.56796
225.25000	0.56625
225.00000	0.56231
224.75000	0.56117
224.50000	0.56297
224.25000	0.56471
224.00000	0.56946
223.75000	0.57147
223.50000	0.56453
223.25000	0.56760
223.00000	0.56780
222.75000	0.57440
222.50000	0.56993
222.25000	0.57225
222.00000	0.57339
221.75000	0.56795
221.50000	0.57371
221.25000	0.57821
221.00000	0.58104
220.75000	0.58036
220.50000	0.58096
220.25000	0.58430
220.00000	0.58272
219.75000	0.58415
