4.800000e+002	1.482742e+002
4.805000e+002	1.496971e+002
4.810000e+002	1.555306e+002
4.815000e+002	1.404144e+002
4.820000e+002	1.484629e+002
4.825000e+002	1.210674e+002
4.830000e+002	2.102144e+002
4.835000e+002	1.750366e+002
4.840000e+002	2.602183e+002
4.845000e+002	2.943243e+002
4.850000e+002	3.274534e+002
4.855000e+002	3.909731e+002
4.860000e+002	4.648637e+002
4.865000e+002	5.739833e+002
4.870000e+002	6.135000e+002
4.875000e+002	7.221940e+002
4.880000e+002	7.542060e+002
4.885000e+002	8.124642e+002
4.890000e+002	9.289893e+002
4.895000e+002	1.008325e+003
4.900000e+002	9.828417e+002
4.905000e+002	1.129177e+003
4.910000e+002	1.199243e+003
4.915000e+002	1.239698e+003
4.920000e+002	1.366726e+003
4.925000e+002	1.576249e+003
4.930000e+002	1.588787e+003
4.935000e+002	1.731216e+003
4.940000e+002	1.798704e+003
4.945000e+002	1.892070e+003
4.950000e+002	2.090800e+003
4.955000e+002	2.275439e+003
4.960000e+002	2.292137e+003
4.965000e+002	2.652953e+003
4.970000e+002	2.940001e+003
4.975000e+002	3.271911e+003
4.980000e+002	3.450396e+003
4.985000e+002	3.979058e+003
4.990000e+002	4.324787e+003
4.995000e+002	4.799261e+003
5.000000e+002	5.208974e+003
5.005000e+002	5.901981e+003
5.010000e+002	6.448386e+003
5.015000e+002	7.489368e+003
5.020000e+002	7.981583e+003
5.025000e+002	8.957072e+003
5.030000e+002	9.587616e+003
5.035000e+002	1.102883e+004
5.040000e+002	1.154529e+004
5.045000e+002	1.300935e+004
5.050000e+002	1.383476e+004
5.055000e+002	1.619852e+004
5.060000e+002	1.664353e+004
5.065000e+002	1.900582e+004
5.070000e+002	2.069816e+004
5.075000e+002	2.372023e+004
5.080000e+002	2.532796e+004
5.085000e+002	2.790296e+004
5.090000e+002	3.171997e+004
5.095000e+002	3.522159e+004
5.100000e+002	3.788289e+004
5.105000e+002	4.267138e+004
5.110000e+002	4.711153e+004
5.115000e+002	5.287236e+004
5.120000e+002	5.725428e+004
5.125000e+002	6.340770e+004
5.130000e+002	6.979175e+004
5.135000e+002	7.855402e+004
5.140000e+002	8.498793e+004
5.145000e+002	9.429171e+004
5.150000e+002	1.023668e+005
5.155000e+002	1.170273e+005
5.160000e+002	1.252565e+005
5.165000e+002	1.392332e+005
5.170000e+002	1.497316e+005
5.175000e+002	1.687969e+005
5.180000e+002	1.796438e+005
5.185000e+002	1.989246e+005
5.190000e+002	2.138936e+005
5.195000e+002	2.384537e+005
5.200000e+002	2.521304e+005
5.205000e+002	2.782747e+005
5.210000e+002	2.968485e+005
5.215000e+002	3.287499e+005
5.220000e+002	3.475817e+005
5.225000e+002	3.804745e+005
5.230000e+002	4.051994e+005
5.235000e+002	4.433328e+005
5.240000e+002	4.674166e+005
5.245000e+002	5.002513e+005
5.250000e+002	5.361291e+005
5.255000e+002	5.768914e+005
5.260000e+002	6.047422e+005
5.265000e+002	6.477739e+005
5.270000e+002	6.851761e+005
5.275000e+002	7.294992e+005
5.280000e+002	7.556349e+005
5.285000e+002	8.026357e+005
5.290000e+002	8.373386e+005
5.295000e+002	8.832603e+005
5.300000e+002	9.126502e+005
5.305000e+002	9.567985e+005
5.310000e+002	9.869592e+005
5.315000e+002	1.031993e+006
5.320000e+002	1.055551e+006
5.325000e+002	1.089761e+006
5.330000e+002	1.117956e+006
5.335000e+002	1.155790e+006
5.340000e+002	1.168742e+006
5.345000e+002	1.198886e+006
5.350000e+002	1.219870e+006
5.355000e+002	1.244918e+006
5.360000e+002	1.258746e+006
5.365000e+002	1.279238e+006
5.370000e+002	1.290772e+006
5.375000e+002	1.307629e+006
5.380000e+002	1.314696e+006
5.385000e+002	1.326346e+006
5.390000e+002	1.330000e+006
5.395000e+002	1.336554e+006
5.400000e+002	1.340402e+006
5.405000e+002	1.339907e+006
5.410000e+002	1.338912e+006
5.415000e+002	1.335336e+006
5.420000e+002	1.335813e+006
5.425000e+002	1.326146e+006
5.430000e+002	1.321528e+006
5.435000e+002	1.307468e+006
5.440000e+002	1.298822e+006
5.445000e+002	1.287736e+006
5.450000e+002	1.275339e+006
5.455000e+002	1.259514e+006
5.460000e+002	1.249712e+006
5.465000e+002	1.227717e+006
5.470000e+002	1.218373e+006
5.475000e+002	1.194358e+006
5.480000e+002	1.186612e+006
5.485000e+002	1.156410e+006
5.490000e+002	1.148391e+006
5.495000e+002	1.116381e+006
5.500000e+002	1.109777e+006
5.505000e+002	1.082385e+006
5.510000e+002	1.065144e+006
5.515000e+002	1.039480e+006
5.520000e+002	1.023555e+006
5.525000e+002	1.001391e+006
5.530000e+002	9.824365e+005
5.535000e+002	9.543781e+005
5.540000e+002	9.418001e+005
5.545000e+002	9.195754e+005
5.550000e+002	8.982038e+005
5.555000e+002	8.753802e+005
5.560000e+002	8.636691e+005
5.565000e+002	8.425603e+005
5.570000e+002	8.245705e+005
5.575000e+002	8.010521e+005
5.580000e+002	7.918192e+005
5.585000e+002	7.751618e+005
5.590000e+002	7.598685e+005
5.595000e+002	7.402946e+005
5.600000e+002	7.272281e+005
5.605000e+002	7.103717e+005
5.610000e+002	6.965635e+005
5.615000e+002	6.798261e+005
5.620000e+002	6.707028e+005
5.625000e+002	6.557466e+005
5.630000e+002	6.411495e+005
5.635000e+002	6.246065e+005
5.640000e+002	6.159424e+005
5.645000e+002	6.035737e+005
5.650000e+002	5.912471e+005
5.655000e+002	5.777441e+005
5.660000e+002	5.711735e+005
5.665000e+002	5.601201e+005
5.670000e+002	5.533513e+005
5.675000e+002	5.393025e+005
5.680000e+002	5.332110e+005
5.685000e+002	5.243652e+005
5.690000e+002	5.170096e+005
5.695000e+002	5.080818e+005
5.700000e+002	5.007229e+005
5.705000e+002	4.921952e+005
5.710000e+002	4.887593e+005
5.715000e+002	4.788474e+005
5.720000e+002	4.749013e+005
5.725000e+002	4.698335e+005
5.730000e+002	4.653420e+005
5.735000e+002	4.553346e+005
5.740000e+002	4.512262e+005
5.745000e+002	4.475350e+005
5.750000e+002	4.452631e+005
5.755000e+002	4.395862e+005
5.760000e+002	4.327919e+005
5.765000e+002	4.296175e+005
5.770000e+002	4.259324e+005
5.775000e+002	4.207375e+005
5.780000e+002	4.172072e+005
5.785000e+002	4.142760e+005
5.790000e+002	4.097276e+005
5.795000e+002	4.053350e+005
5.800000e+002	4.053803e+005
5.805000e+002	3.998852e+005
5.810000e+002	3.959297e+005
5.815000e+002	3.930222e+005
5.820000e+002	3.899640e+005
5.825000e+002	3.867822e+005
5.830000e+002	3.823549e+005
5.835000e+002	3.793982e+005
5.840000e+002	3.775059e+005
5.845000e+002	3.743999e+005
5.850000e+002	3.710618e+005
5.855000e+002	3.661002e+005
5.860000e+002	3.632700e+005
5.865000e+002	3.581289e+005
5.870000e+002	3.534930e+005
5.875000e+002	3.484896e+005
5.880000e+002	3.464675e+005
5.885000e+002	3.426098e+005
5.890000e+002	3.375760e+005
5.895000e+002	3.335274e+005
5.900000e+002	3.303311e+005
5.905000e+002	3.241490e+005
5.910000e+002	3.198891e+005
5.915000e+002	3.160614e+005
5.920000e+002	3.120574e+005
5.925000e+002	3.080885e+005
5.930000e+002	3.038138e+005
5.935000e+002	2.970753e+005
5.940000e+002	2.942038e+005
5.945000e+002	2.873872e+005
5.950000e+002	2.856394e+005
5.955000e+002	2.793180e+005
5.960000e+002	2.766520e+005
5.965000e+002	2.702848e+005
5.970000e+002	2.663344e+005
5.975000e+002	2.607635e+005
5.980000e+002	2.574327e+005
5.985000e+002	2.523615e+005
5.990000e+002	2.485106e+005
5.995000e+002	2.400151e+005
6.000000e+002	2.371563e+005
6.005000e+002	2.334365e+005
6.010000e+002	2.286535e+005
6.015000e+002	2.234456e+005
6.020000e+002	2.181784e+005
6.025000e+002	2.143751e+005
6.030000e+002	2.085285e+005
6.035000e+002	2.054282e+005
6.040000e+002	2.010675e+005
6.045000e+002	1.973243e+005
6.050000e+002	1.931766e+005
6.055000e+002	1.880970e+005
6.060000e+002	1.857754e+005
6.065000e+002	1.825412e+005
6.070000e+002	1.793881e+005
6.075000e+002	1.742444e+005
6.080000e+002	1.723362e+005
6.085000e+002	1.678369e+005
6.090000e+002	1.661651e+005
6.095000e+002	1.585969e+005
6.100000e+002	1.583860e+005
6.105000e+002	1.536344e+005
6.110000e+002	1.510348e+005
6.115000e+002	1.460840e+005
6.120000e+002	1.448304e+005
6.125000e+002	1.405153e+005
6.130000e+002	1.378208e+005
6.135000e+002	1.350960e+005
6.140000e+002	1.325228e+005
6.145000e+002	1.296389e+005
6.150000e+002	1.271482e+005
6.155000e+002	1.243966e+005
6.160000e+002	1.225448e+005
6.165000e+002	1.200411e+005
6.170000e+002	1.164761e+005
6.175000e+002	1.141618e+005
6.180000e+002	1.133246e+005
6.185000e+002	1.097202e+005
6.190000e+002	1.077180e+005
6.195000e+002	1.053532e+005
6.200000e+002	1.047500e+005
6.205000e+002	1.015596e+005
6.210000e+002	1.010218e+005
6.215000e+002	9.844061e+004
6.220000e+002	9.780998e+004
6.225000e+002	9.538237e+004
6.230000e+002	9.283875e+004
6.235000e+002	9.126426e+004
6.240000e+002	8.976777e+004
6.245000e+002	8.751832e+004
6.250000e+002	8.561345e+004
6.255000e+002	8.433433e+004
6.260000e+002	8.256295e+004
6.265000e+002	8.087942e+004
6.270000e+002	8.036883e+004
6.275000e+002	7.704197e+004
6.280000e+002	7.665164e+004
6.285000e+002	7.640416e+004
6.290000e+002	7.540831e+004
6.295000e+002	7.382269e+004
6.300000e+002	7.317209e+004
6.305000e+002	7.206316e+004
6.310000e+002	7.058687e+004
6.315000e+002	6.879767e+004
6.320000e+002	6.949598e+004
6.325000e+002	6.853030e+004
6.330000e+002	6.772695e+004
6.335000e+002	6.543112e+004
6.340000e+002	6.526002e+004
6.345000e+002	6.416224e+004
6.350000e+002	6.326423e+004
6.355000e+002	6.238317e+004
6.360000e+002	6.052888e+004
6.365000e+002	6.018275e+004
6.370000e+002	5.960768e+004
6.375000e+002	5.817766e+004
6.380000e+002	5.809281e+004
6.385000e+002	5.661101e+004
6.390000e+002	5.582534e+004
6.395000e+002	5.551848e+004
6.400000e+002	5.518986e+004
6.405000e+002	5.433246e+004
6.410000e+002	5.287354e+004
6.415000e+002	5.322791e+004
6.420000e+002	5.246446e+004
6.425000e+002	5.116301e+004
6.430000e+002	5.041930e+004
6.435000e+002	4.997442e+004
6.440000e+002	4.886959e+004
6.445000e+002	4.845707e+004
6.450000e+002	4.798409e+004
6.455000e+002	4.602658e+004
6.460000e+002	4.715348e+004
6.465000e+002	4.582589e+004
6.470000e+002	4.516816e+004
6.475000e+002	4.423296e+004
6.480000e+002	4.463067e+004
6.485000e+002	4.299505e+004
6.490000e+002	4.211171e+004
6.495000e+002	3.988405e+004
6.500000e+002	4.104976e+004
6.505000e+002	3.922697e+004
6.510000e+002	3.976711e+004
6.515000e+002	3.893015e+004
6.520000e+002	3.817443e+004
6.525000e+002	3.768841e+004
6.530000e+002	3.772818e+004
6.535000e+002	3.653644e+004
6.540000e+002	3.615977e+004
6.545000e+002	3.503123e+004
6.550000e+002	3.469781e+004
6.555000e+002	3.431380e+004
6.560000e+002	3.374761e+004
6.565000e+002	3.293471e+004
6.570000e+002	3.284393e+004
6.575000e+002	3.178247e+004
6.580000e+002	3.096135e+004
6.585000e+002	3.041353e+004
6.590000e+002	3.095127e+004
6.595000e+002	3.046802e+004
6.600000e+002	2.940248e+004
6.605000e+002	2.857632e+004
6.610000e+002	2.798225e+004
6.615000e+002	2.828680e+004
6.620000e+002	2.702099e+004
6.625000e+002	2.637616e+004
6.630000e+002	2.564921e+004
6.635000e+002	2.508641e+004
6.640000e+002	2.525831e+004
6.645000e+002	2.420449e+004
6.650000e+002	2.377134e+004
6.655000e+002	2.393017e+004
6.660000e+002	2.340503e+004
6.665000e+002	2.293620e+004
6.670000e+002	2.248349e+004
6.675000e+002	2.174776e+004
6.680000e+002	2.128973e+004
6.685000e+002	2.119339e+004
6.690000e+002	2.132428e+004
6.695000e+002	2.013622e+004
6.700000e+002	2.027917e+004
6.705000e+002	1.994429e+004
6.710000e+002	1.909094e+004
6.715000e+002	1.863589e+004
6.720000e+002	1.847002e+004
6.725000e+002	1.808128e+004
6.730000e+002	1.863898e+004
6.735000e+002	1.727641e+004
6.740000e+002	1.686016e+004
6.745000e+002	1.611831e+004
6.750000e+002	1.611026e+004
6.755000e+002	1.567995e+004
6.760000e+002	1.529429e+004
6.765000e+002	1.552162e+004
6.770000e+002	1.514382e+004
6.775000e+002	1.536569e+004
6.780000e+002	1.443443e+004
6.785000e+002	1.457956e+004
6.790000e+002	1.398367e+004
6.795000e+002	1.396733e+004
6.800000e+002	1.362009e+004
6.805000e+002	1.324970e+004
6.810000e+002	1.304604e+004
6.815000e+002	1.176590e+004
6.820000e+002	1.243194e+004
6.825000e+002	1.194781e+004
6.830000e+002	1.188184e+004
6.835000e+002	1.159217e+004
6.840000e+002	1.152716e+004
6.845000e+002	1.085950e+004
6.850000e+002	1.035835e+004
6.855000e+002	1.049374e+004
6.860000e+002	1.088185e+004
6.865000e+002	1.004136e+004
6.870000e+002	1.029650e+004
6.875000e+002	9.212348e+003
6.880000e+002	9.458033e+003
6.885000e+002	9.310308e+003
6.890000e+002	9.379926e+003
6.895000e+002	9.037065e+003
6.900000e+002	8.863781e+003
6.905000e+002	8.661305e+003
6.910000e+002	9.345366e+003
6.915000e+002	8.706308e+003
6.920000e+002	8.508983e+003
6.925000e+002	7.817583e+003
6.930000e+002	7.860809e+003
6.935000e+002	7.601941e+003
6.940000e+002	7.586141e+003
6.945000e+002	7.352952e+003
6.950000e+002	7.097074e+003
6.955000e+002	7.215728e+003
6.960000e+002	6.913087e+003
6.965000e+002	7.109306e+003
6.970000e+002	6.899413e+003
6.975000e+002	6.441028e+003
6.980000e+002	6.302844e+003
6.985000e+002	6.464344e+003
6.990000e+002	6.478798e+003
6.995000e+002	6.051074e+003
7.000000e+002	6.103084e+003
_______________________________________________________________________________
